Detector angle	Rate at 25kV	Rate at 30kV	Rate at 35kV
2*theta/°	R(25kV)/Imp/s	R(30kV)/Imp/s	R(35kV)/Imp/s

10.0	1.0	3.0	7.0
10.2	0.0	1.0	4.0
10.3	1.0	2.0	5.0
10.6	1.0	2.0	2.0
10.8	0.0	0.0	7.0
11.0	0.0	4.0	2.0
11.2	0.0	3.0	3.0
11.4	3.0	1.0	6.0
11.6	0.0	3.0	6.0
11.8	1.0	4.0	8.0
12.0	3.0	2.0	10.0
12.2	1.0	1.0	9.0
12.4	2.0	5.0	4.0
12.6	1.0	1.0	7.0
12.8	3.0	3.0	2.0
13.0	3.0	2.0	10.0
13.2	3.0	3.0	8.0
13.4	2.0	0.0	9.0
13.6	1.0	4.0	8.0
13.8	0.0	1.0	10.0
14.0	2.0	8.0	9.0
14.2	1.0	3.0	12.0
14.4	2.0	4.0	7.0
14.6	0.0	3.0	8.0
14.8	1.0	3.0	4.0
15.0	0.0	4.0	7.0
15.2	2.0	5.0	6.0
15.4	2.0	2.0	6.0
15.6	1.0	2.0	6.0
15.8	4.0	5.0	10.0
16.0	0.0	6.0	7.0
16.2	1.0	4.0	3.0
16.4	0.0	1.0	7.0
16.6	3.0	3.0	9.0
16.7	3.0	3.0	8.0
17.0	1.0	3.0	5.0
17.2	1.0	3.0	5.0
17.4	2.0	2.0	5.0
17.6	3.0	3.0	8.0
17.7	4.0	5.0	3.0
18.0	1.0	5.0	4.0
18.2	2.0	2.0	6.0
18.4	0.0	7.0	9.0
18.6	2.0	3.0	6.0
18.7	1.0	3.0	6.0
19.0	2.0	3.0	9.0
19.2	0.0	4.0	10.0
19.4	2.0	7.0	4.0
19.6	0.0	4.0	4.0
19.7	1.0	4.0	2.0
20.0	2.0	4.0	7.0
20.2	1.0	2.0	4.0
20.4	0.0	2.0	4.0
20.6	0.0	3.0	3.0
20.7	0.0	2.0	6.0
21.0	2.0	6.0	4.0
21.2	0.0	2.0	3.0
21.4	1.0	5.0	6.0
21.6	1.0	4.0	6.0
21.7	2.0	5.0	6.0
22.0	0.0	2.0	4.0
22.2	2.0	3.0	4.0
22.4	4.0	2.0	5.0
22.6	3.0	3.0	6.0
22.7	2.0	1.0	11.0
23.0	1.0	6.0	5.0
23.2	3.0	4.0	8.0
23.4	3.0	2.0	6.0
23.6	3.0	6.0	6.0
23.8	3.0	3.0	12.0
24.0	4.0	2.0	12.0
24.2	2.0	5.0	14.0
24.4	5.0	7.0	6.0
24.6	2.0	3.0	5.0
24.8	2.0	3.0	7.0
25.0	4.0	4.0	7.0
25.2	4.0	5.0	6.0
25.4	0.0	5.0	9.0
25.6	4.0	8.0	8.0
25.8	3.0	7.0	6.0
26.0	4.0	11.0	12.0
26.2	5.0	7.0	11.0
26.4	5.0	7.0	10.0
26.6	5.0	6.0	6.0
26.8	4.0	5.0	8.0
27.0	2.0	6.0	13.0
27.2	4.0	6.0	12.0
27.4	4.0	11.0	8.0
27.6	3.0	4.0	14.0
27.8	7.0	4.0	5.0
28.0	7.0	2.0	9.0
28.2	7.0	6.0	6.0
28.4	2.0	2.0	11.0
28.6	7.0	8.0	12.0
28.8	4.0	2.0	8.0
29.0	6.0	5.0	11.0
29.2	8.0	7.0	12.0
29.4	3.0	3.0	9.0
29.6	5.0	7.0	10.0
29.8	1.0	7.0	4.0
30.0	4.0	5.0	7.0
30.2	0.0	9.0	16.0
30.4	4.0	6.0	12.0
30.6	6.0	4.0	10.0
30.8	3.0	7.0	15.0
31.0	3.0	11.0	11.0
31.2	4.0	6.0	6.0
31.4	9.0	6.0	8.0
31.6	3.0	8.0	13.0
31.8	3.0	4.0	8.0
32.0	1.0	9.0	11.0
32.2	10.0	7.0	12.0
32.4	4.0	9.0	7.0
32.5	5.0	3.0	14.0
32.8	3.0	3.0	5.0
33.0	6.0	4.0	11.0
33.2	9.0	6.0	12.0
33.4	7.0	9.0	5.0
33.5	6.0	5.0	8.0
33.8	4.0	9.0	6.0
34.0	2.0	7.0	10.0
34.2	5.0	6.0	9.0
34.4	3.0	13.0	7.0
34.5	3.0	5.0	12.0
34.8	6.0	4.0	15.0
35.0	7.0	4.0	6.0
35.2	5.0	5.0	8.0
35.4	8.0	4.0	8.0
35.5	3.0	7.0	7.0
35.8	4.0	6.0	8.0
36.0	5.0	9.0	6.0
36.2	5.0	3.0	11.0
36.4	2.0	7.0	6.0
36.5	5.0	4.0	12.0
36.8	1.0	7.0	12.0
37.0	2.0	5.0	6.0
37.2	1.0	7.0	6.0
37.4	2.0	7.0	9.0
37.5	2.0	3.0	8.0
37.8	3.0	7.0	6.0
38.0	4.0	8.0	12.0
38.2	4.0	4.0	9.0
38.4	5.0	5.0	6.0
38.5	2.0	5.0	18.0
38.8	11.0	4.0	12.0
39.0	5.0	4.0	12.0
39.2	5.0	8.0	5.0
39.4	4.0	3.0	14.0
39.5	2.0	5.0	7.0
39.8	11.0	3.0	11.0
40.0	4.0	5.0	8.0
