Detector angle	Rate at 25kV	Rate at 30kV	Rate at 35kV
2*theta/°	R(25kV)/Imp/s	R(30kV)/Imp/s	R(35kV)/Imp/s

10.0	2.0	4.0	4.0
10.2	2.0	5.0	4.0
10.3	1.0	3.0	10.0
10.6	0.0	3.0	5.0
10.8	0.0	1.0	4.0
11.0	0.0	1.0	6.0
11.2	1.0	1.0	7.0
11.4	1.0	4.0	6.0
11.6	2.0	6.0	9.0
11.8	0.0	1.0	2.0
12.0	2.0	3.0	9.0
12.2	1.0	0.0	4.0
12.4	0.0	3.0	5.0
12.6	2.0	1.0	8.0
12.8	1.0	2.0	4.0
13.0	0.0	2.0	2.0
13.2	0.0	0.0	10.0
13.4	1.0	1.0	7.0
13.6	0.0	3.0	2.0
13.8	1.0	2.0	7.0
14.0	2.0	3.0	9.0
14.2	4.0	1.0	5.0
14.4	0.0	3.0	9.0
14.6	1.0	3.0	8.0
14.8	1.0	8.0	12.0
15.0	2.0	3.0	8.0
15.2	0.0	3.0	5.0
15.4	0.0	3.0	6.0
15.6	2.0	2.0	9.0
15.8	0.0	2.0	7.0
16.0	1.0	3.0	5.0
16.2	4.0	4.0	5.0
16.4	2.0	6.0	9.0
16.6	1.0	3.0	8.0
16.7	1.0	3.0	4.0
17.0	2.0	4.0	2.0
17.2	2.0	3.0	4.0
17.4	2.0	1.0	3.0
17.6	1.0	5.0	3.0
17.7	2.0	3.0	6.0
18.0	1.0	5.0	5.0
18.2	1.0	6.0	6.0
18.4	2.0	4.0	3.0
18.6	1.0	3.0	3.0
18.7	4.0	0.0	6.0
19.0	2.0	2.0	6.0
19.2	2.0	4.0	3.0
19.4	1.0	4.0	9.0
19.6	0.0	5.0	6.0
19.7	3.0	2.0	5.0
20.0	2.0	2.0	4.0
20.2	4.0	3.0	6.0
20.4	1.0	2.0	3.0
20.6	1.0	2.0	6.0
20.7	2.0	5.0	6.0
21.0	2.0	2.0	9.0
21.2	0.0	6.0	1.0
21.4	4.0	4.0	6.0
21.6	1.0	3.0	8.0
21.7	3.0	4.0	7.0
22.0	3.0	4.0	3.0
22.2	5.0	6.0	6.0
22.4	0.0	1.0	8.0
22.6	2.0	3.0	8.0
22.7	4.0	4.0	4.0
23.0	0.0	4.0	4.0
23.2	7.0	3.0	4.0
23.4	2.0	2.0	9.0
23.6	1.0	7.0	5.0
23.8	1.0	6.0	6.0
24.0	2.0	3.0	8.0
24.2	4.0	3.0	5.0
24.4	3.0	5.0	8.0
24.6	3.0	4.0	8.0
24.8	3.0	1.0	3.0
25.0	4.0	3.0	4.0
25.2	4.0	7.0	10.0
25.4	1.0	5.0	11.0
25.6	1.0	8.0	8.0
25.8	2.0	5.0	9.0
26.0	4.0	11.0	6.0
26.2	4.0	2.0	3.0
26.4	5.0	6.0	8.0
26.6	3.0	6.0	7.0
26.8	5.0	8.0	8.0
27.0	2.0	7.0	9.0
27.2	3.0	6.0	6.0
27.4	9.0	7.0	7.0
27.6	4.0	6.0	8.0
27.8	4.0	8.0	7.0
28.0	8.0	8.0	10.0
28.2	2.0	5.0	9.0
28.4	0.0	9.0	7.0
28.6	3.0	8.0	7.0
28.8	7.0	5.0	10.0
29.0	5.0	10.0	7.0
29.2	8.0	9.0	9.0
29.4	3.0	5.0	14.0
29.6	4.0	5.0	9.0
29.8	3.0	8.0	6.0
30.0	8.0	7.0	7.0
30.2	2.0	8.0	9.0
30.4	1.0	8.0	6.0
30.6	4.0	7.0	9.0
30.8	5.0	6.0	7.0
31.0	4.0	8.0	11.0
31.2	1.0	5.0	15.0
31.4	3.0	9.0	11.0
31.6	2.0	6.0	10.0
31.8	5.0	10.0	5.0
32.0	2.0	7.0	11.0
32.2	3.0	5.0	7.0
32.4	3.0	8.0	6.0
32.5	5.0	6.0	6.0
32.8	2.0	6.0	6.0
33.0	3.0	5.0	6.0
33.2	3.0	4.0	10.0
33.4	8.0	9.0	10.0
33.5	8.0	8.0	8.0
33.8	4.0	9.0	10.0
34.0	2.0	6.0	8.0
34.2	5.0	10.0	11.0
34.4	6.0	9.0	12.0
34.5	5.0	11.0	9.0
34.8	5.0	2.0	4.0
35.0	5.0	9.0	12.0
35.2	1.0	5.0	6.0
35.4	2.0	4.0	10.0
35.5	6.0	4.0	9.0
35.8	3.0	8.0	9.0
36.0	5.0	6.0	11.0
36.2	4.0	4.0	5.0
36.4	2.0	9.0	9.0
36.5	3.0	9.0	5.0
36.8	4.0	3.0	7.0
37.0	7.0	5.0	7.0
37.2	8.0	4.0	6.0
37.4	4.0	5.0	11.0
37.5	7.0	3.0	9.0
37.8	2.0	5.0	9.0
38.0	10.0	3.0	6.0
38.2	1.0	8.0	7.0
38.4	8.0	5.0	11.0
38.5	2.0	3.0	5.0
38.8	6.0	6.0	6.0
39.0	6.0	3.0	9.0
39.2	9.0	9.0	10.0
39.4	2.0	8.0	8.0
39.5	5.0	2.0	8.0
39.8	7.0	4.0	9.0
40.0	3.0	9.0	15.0
